Time(sec),Data
0.0,0.5
0.10000000000000001,0.5
0.20000000000000001,0.5
0.30000000000000004,0.5
0.40000000000000002,0.5
0.5,0.5
0.59999999999999998,0.5
0.69999999999999996,0.5
0.79999999999999993,0.5
0.89999999999999991,0.5
0.99999999999999989,0.5
1.0999999999999999,0.5
1.2,0.5
1.3,0.5
1.4000000000000001,0.5
1.5000000000000002,0.5
1.6000000000000003,0.5
1.7000000000000004,0.5
1.8000000000000005,0.5
1.9000000000000006,0.5
2.0000000000000004,0.5
2.1000000000000005,0.5
2.2000000000000006,0.5
2.3000000000000007,0.5
2.4000000000000008,0.5
2.5000000000000009,0.51500000000000001
2.600000000000001,0.54000000000000004
2.7000000000000011,0.56000000000000005
2.8000000000000012,0.58999999999999997
2.9000000000000012,0.60999999999999999
3.0000000000000013,0.62
3.1000000000000014,0.63
3.2000000000000015,0.63
3.3000000000000016,0.64000000000000001
3.4000000000000017,0.65000000000000002
3.5000000000000018,0.65000000000000002
3.6000000000000019,0.65000000000000002
3.700000000000002,0.65000000000000002
3.800000000000002,0.65000000000000002
3.9000000000000021,0.65000000000000002
4.0000000000000018,0.65000000000000002
4.1000000000000014,0.65000000000000002
4.2000000000000011,0.65000000000000002
4.3000000000000007,0.65000000000000002
4.4000000000000004,0.65000000000000002
4.5,0.65000000000000002
4.5999999999999996,0.65000000000000002
4.6999999999999993,0.65000000000000002
4.7999999999999989,0.65000000000000002
4.8999999999999986,0.65000000000000002
4.9999999999999982,0.65000000000000002
5.0999999999999979,0.65000000000000002
5.1999999999999975,0.65000000000000002
5.2999999999999972,0.65000000000000002
5.3999999999999968,0.65000000000000002
5.4999999999999964,0.65000000000000002
5.5999999999999961,0.65000000000000002
5.6999999999999957,0.65000000000000002
5.7999999999999954,0.65000000000000002
5.899999999999995,0.65000000000000002
5.9999999999999947,0.65000000000000002
6.0999999999999943,0.65000000000000002
6.199999999999994,0.65000000000000002
6.2999999999999936,0.65000000000000002
6.3999999999999932,0.65000000000000002
6.4999999999999929,0.65000000000000002
6.5999999999999925,0.65000000000000002
6.6999999999999922,0.65000000000000002
6.7999999999999918,0.65000000000000002
6.8999999999999915,0.65000000000000002
6.9999999999999911,0.65000000000000002
7.0999999999999908,0.65000000000000002
7.1999999999999904,0.65000000000000002
7.2999999999999901,0.65000000000000002
7.3999999999999897,0.65000000000000002
7.4999999999999893,0.65000000000000002
7.599999999999989,0.65000000000000002
7.6999999999999886,0.65000000000000002
7.7999999999999883,0.65000000000000002
7.8999999999999879,0.65000000000000002
7.9999999999999876,0.65000000000000002
8.0999999999999872,0.65000000000000002
8.1999999999999869,0.65000000000000002
8.2999999999999865,0.65000000000000002
8.3999999999999861,0.65000000000000002
8.4999999999999858,0.64000000000000001
8.5999999999999854,0.64000000000000001
8.6999999999999851,0.64000000000000001
8.7999999999999847,0.64000000000000001
8.8999999999999844,0.65000000000000002
8.999999999999984,0.66000000000000003
9.0999999999999837,0.66000000000000003
9.1999999999999833,0.66000000000000003
9.2999999999999829,0.66000000000000003
9.3999999999999826,0.66000000000000003
9.4999999999999822,0.66000000000000003
9.5999999999999819,0.66000000000000003
9.6999999999999815,0.66000000000000003
9.7999999999999812,0.66000000000000003
9.8999999999999808,0.66000000000000003
9.9999999999999805,0.66000000000000003
10.09999999999998,0.66000000000000003
10.19999999999998,0.66000000000000003
10.299999999999979,0.66000000000000003
10.399999999999979,0.66000000000000003
10.499999999999979,0.66000000000000003
10.599999999999978,0.66000000000000003
10.699999999999978,0.66000000000000003
10.799999999999978,0.66000000000000003
10.899999999999977,0.66000000000000003
10.999999999999977,0.66000000000000003
11.099999999999977,0.66000000000000003
11.199999999999976,0.66000000000000003
11.299999999999976,0.66000000000000003
11.399999999999975,0.66000000000000003
11.499999999999975,0.66000000000000003
11.599999999999975,0.66000000000000003
11.699999999999974,0.66000000000000003
11.799999999999974,0.65000000000000002
11.899999999999974,0.63
11.999999999999973,0.61499999999999999
12.099999999999973,0.57999999999999996
12.199999999999973,0.56000000000000005
12.299999999999972,0.54000000000000004
12.399999999999972,0.51000000000000001
12.499999999999972,0.46999999999999997
12.599999999999971,0.44
12.699999999999971,0.42999999999999999
12.799999999999971,0.38
12.89999999999997,0.37
12.99999999999997,0.35999999999999999
13.099999999999969,0.34000000000000002
13.199999999999969,0.33000000000000002
13.299999999999969,0.32000000000000001
13.399999999999968,0.28999999999999998
13.499999999999968,0.27000000000000002
13.599999999999968,0.25
13.699999999999967,0.23000000000000001
13.799999999999967,0.20999999999999999
13.899999999999967,0.20999999999999999
13.999999999999966,0.20000000000000001
14.099999999999966,0.19
14.199999999999966,0.17999999999999999
14.299999999999965,0.17000000000000001
14.399999999999965,0.17000000000000001
14.499999999999964,0.16
14.599999999999964,0.16
14.699999999999964,0.14999999999999999
14.799999999999963,0.14500000000000002
14.899999999999963,0.13
14.999999999999963,0.11
15.099999999999962,0.11
15.199999999999962,0.10000000000000001
15.299999999999962,0.089999999999999997
15.399999999999961,0.089999999999999997
15.499999999999961,0.080000000000000002
15.599999999999961,0.070000000000000007
15.69999999999996,0.059999999999999998
15.79999999999996,0.059999999999999998
15.899999999999959,0.059999999999999998
15.999999999999959,0.059999999999999998
16.099999999999959,0.059999999999999998
16.19999999999996,0.059999999999999998
16.299999999999962,0.059999999999999998
16.399999999999963,0.059999999999999998
16.499999999999964,0.050000000000000003
16.599999999999966,0.040000000000000001
16.699999999999967,0.040000000000000001
16.799999999999969,0.02
16.89999999999997,0.02
16.999999999999972,0.02
17.099999999999973,0.01
17.199999999999974,0.01
17.299999999999976,0.01
17.399999999999977,0.01
17.499999999999979,0.01
17.59999999999998,0.01
17.699999999999982,0.0
17.799999999999983,0.0
17.899999999999984,0.0
17.999999999999986,0.0
18.099999999999987,0.0
18.199999999999989,0.0
18.29999999999999,0.0
18.399999999999991,0.0
18.499999999999993,0.0
18.599999999999994,0.0
18.699999999999996,0.0
18.799999999999997,0.0
18.899999999999999,0.0
19.0,0.0
19.100000000000001,0.0
19.200000000000003,0.0
19.300000000000004,0.0
19.400000000000006,0.0
19.500000000000007,0.0
19.600000000000009,0.0
19.70000000000001,0.0
19.800000000000011,0.0
19.900000000000013,0.0
20.000000000000014,0.0
20.100000000000016,0.0
20.200000000000017,0.0
20.300000000000018,0.0
20.40000000000002,0.0
20.500000000000021,0.0
20.600000000000023,0.0
20.700000000000024,0.0
20.800000000000026,0.0
20.900000000000027,0.0
21.000000000000028,0.0
21.10000000000003,0.0
21.200000000000031,0.0
21.300000000000033,0.0
21.400000000000034,0.0
21.500000000000036,0.0
21.600000000000037,0.0
21.700000000000038,0.0
21.80000000000004,0.0
21.900000000000041,0.0
22.000000000000043,0.0
22.100000000000044,0.0
22.200000000000045,0.0
22.300000000000047,0.0
22.400000000000048,0.0
22.50000000000005,0.0
22.600000000000051,0.0
22.700000000000053,0.0
22.800000000000054,0.0
22.900000000000055,0.0
23.000000000000057,0.0
23.100000000000058,0.0
23.20000000000006,0.0
23.300000000000061,0.0
23.400000000000063,0.0
23.500000000000064,0.0
23.600000000000065,0.0
23.700000000000067,0.0
23.800000000000068,0.0
23.90000000000007,0.029999999999999999
24.000000000000071,0.19
24.100000000000072,0.23000000000000001
24.200000000000074,0.39666666666666667
24.300000000000075,0.51000000000000001
24.400000000000077,0.66000000000000003
24.500000000000078,0.70999999999999996
24.60000000000008,0.75
24.700000000000081,0.79000000000000004
24.800000000000082,0.81000000000000005
24.900000000000084,0.82999999999999996
25.000000000000085,0.82999999999999996
25.100000000000087,0.83999999999999997
25.200000000000088,0.83999999999999997
25.30000000000009,0.83999999999999997
25.400000000000091,0.83999999999999997
25.500000000000092,0.83999999999999997
25.600000000000094,0.83999999999999997
25.700000000000095,0.83999999999999997
25.800000000000097,0.83999999999999997
25.900000000000098,0.83999999999999997
26.000000000000099,0.85999999999999999
26.100000000000101,0.88
26.200000000000102,0.88
26.300000000000104,0.89000000000000001
26.400000000000105,0.90000000000000002
26.500000000000107,0.92000000000000004
26.600000000000108,0.92000000000000004
26.700000000000109,0.93000000000000005
26.800000000000111,0.93999999999999995
26.900000000000112,0.94999999999999996
27.000000000000114,0.95999999999999996
27.100000000000115,0.96999999999999997
27.200000000000117,0.98999999999999999
27.300000000000118,0.98999999999999999
27.400000000000119,0.98999999999999999
27.500000000000121,0.98999999999999999
27.600000000000122,0.98999999999999999
27.700000000000124,0.98999999999999999
27.800000000000125,0.98999999999999999
27.900000000000126,0.98999999999999999
28.000000000000128,0.98999999999999999
28.100000000000129,0.98999999999999999
28.200000000000131,0.98999999999999999
28.300000000000132,0.98999999999999999
28.400000000000134,0.98999999999999999
28.500000000000135,0.98999999999999999
28.600000000000136,0.98999999999999999
28.700000000000138,0.98999999999999999
28.800000000000139,0.98999999999999999
28.900000000000141,0.98999999999999999
29.000000000000142,0.98999999999999999
29.100000000000144,0.98999999999999999
29.200000000000145,0.98999999999999999
29.300000000000146,0.98999999999999999
29.400000000000148,0.98999999999999999
29.500000000000149,0.98999999999999999
29.600000000000151,0.98999999999999999
29.700000000000152,0.98999999999999999
29.800000000000153,0.98999999999999999
29.900000000000155,0.98999999999999999
30.000000000000156,0.98999999999999999
30.100000000000158,0.98999999999999999
30.200000000000159,0.98999999999999999
30.300000000000161,0.98999999999999999
30.400000000000162,0.98999999999999999
30.500000000000163,0.98999999999999999
30.600000000000165,0.98999999999999999
30.700000000000166,0.98999999999999999
30.800000000000168,0.98999999999999999
30.900000000000169,0.98999999999999999
31.000000000000171,0.98999999999999999
31.100000000000172,0.98999999999999999
31.200000000000173,0.98999999999999999
31.300000000000175,0.98999999999999999
31.400000000000176,0.98999999999999999
31.500000000000178,0.98999999999999999
31.600000000000179,0.98999999999999999
31.70000000000018,0.98999999999999999
31.800000000000182,0.98999999999999999
31.900000000000183,0.98999999999999999
32.000000000000185,0.98999999999999999
32.100000000000186,0.98999999999999999
32.200000000000188,0.98999999999999999
32.300000000000189,0.98999999999999999
32.40000000000019,0.98999999999999999
32.500000000000192,0.98999999999999999
32.600000000000193,0.98999999999999999
32.700000000000195,0.98999999999999999
32.800000000000196,0.98999999999999999
32.900000000000198,0.98999999999999999
33.000000000000199,0.98999999999999999
33.1000000000002,0.98999999999999999
33.200000000000202,0.98999999999999999
33.300000000000203,0.98999999999999999
33.400000000000205,0.98999999999999999
33.500000000000206,0.98999999999999999
33.600000000000207,0.98999999999999999
33.700000000000209,0.98999999999999999
33.80000000000021,0.98999999999999999
33.900000000000212,0.98999999999999999
34.000000000000213,0.98999999999999999
34.100000000000215,0.98999999999999999
34.200000000000216,0.98999999999999999
34.300000000000217,0.98999999999999999
34.400000000000219,0.98999999999999999
34.50000000000022,0.98999999999999999
34.600000000000222,0.98999999999999999
34.700000000000223,0.98999999999999999
34.800000000000225,0.98999999999999999
34.900000000000226,0.98999999999999999
35.000000000000227,0.98999999999999999
35.100000000000229,0.98999999999999999
35.20000000000023,0.98999999999999999
35.300000000000232,0.98999999999999999
35.400000000000233,0.96999999999999997
35.500000000000234,0.93000000000000005
35.600000000000236,0.91000000000000003
35.700000000000237,0.87
35.800000000000239,0.85999999999999999
35.90000000000024,0.85999999999999999
36.000000000000242,0.84999999999999998
36.100000000000243,0.84999999999999998
36.200000000000244,0.84999999999999998
36.300000000000246,0.82999999999999996
36.400000000000247,0.79000000000000004
36.500000000000249,0.76000000000000001
36.60000000000025,0.65500000000000003
36.700000000000252,0.60999999999999999
36.800000000000253,0.55999999999999994
36.900000000000254,0.34000000000000002
37.000000000000256,0.33000000000000002
37.100000000000257,0.29999999999999999
37.200000000000259,0.28999999999999998
37.30000000000026,0.28999999999999998
37.400000000000261,0.28999999999999998
37.500000000000263,0.28999999999999998
37.600000000000264,0.31
37.700000000000266,0.33000000000000002
37.800000000000267,0.34000000000000002
37.900000000000269,0.34999999999999998
38.00000000000027,0.37
38.100000000000271,0.37
38.200000000000273,0.38
38.300000000000274,0.38
38.400000000000276,0.38
38.500000000000277,0.38
38.600000000000279,0.38
38.70000000000028,0.38
38.800000000000281,0.38
38.900000000000283,0.38
39.000000000000284,0.38
39.100000000000286,0.38
39.200000000000287,0.38
39.300000000000288,0.38
39.40000000000029,0.38
39.500000000000291,0.38
39.600000000000293,0.38
39.700000000000294,0.38
39.800000000000296,0.38
39.900000000000297,0.38
40.000000000000298,0.38
40.1000000000003,0.38
40.200000000000301,0.38
40.300000000000303,0.38
40.400000000000304,0.38
40.500000000000306,0.38
40.600000000000307,0.38
40.700000000000308,0.38
40.80000000000031,0.38
40.900000000000311,0.38
41.000000000000313,0.38
41.100000000000314,0.38
41.200000000000315,0.38
41.300000000000317,0.38
41.400000000000318,0.38
41.50000000000032,0.38
41.600000000000321,0.38
41.700000000000323,0.38
41.800000000000324,0.38
41.900000000000325,0.38
42.000000000000327,0.38
42.100000000000328,0.38
42.20000000000033,0.38
42.300000000000331,0.38
42.400000000000333,0.38
42.500000000000334,0.38
42.600000000000335,0.38
42.700000000000337,0.38
42.800000000000338,0.38
42.90000000000034,0.38
43.000000000000341,0.38
43.100000000000342,0.38
43.200000000000344,0.38
43.300000000000345,0.38
43.400000000000347,0.38
43.500000000000348,0.38
43.60000000000035,0.38
43.700000000000351,0.38
43.800000000000352,0.38
43.900000000000354,0.38
44.000000000000355,0.38
44.100000000000357,0.38
44.200000000000358,0.40000000000000002
44.30000000000036,0.42999999999999999
44.400000000000361,0.44
44.500000000000362,0.46000000000000002
44.600000000000364,0.46999999999999997
44.700000000000365,0.48999999999999999
44.800000000000367,0.5
44.900000000000368,0.51000000000000001
45.000000000000369,0.52000000000000002
45.100000000000371,0.52000000000000002
45.200000000000372,0.52000000000000002
45.300000000000374,0.52000000000000002
45.400000000000375,0.52000000000000002
45.500000000000377,0.53000000000000003
45.600000000000378,0.53000000000000003
45.700000000000379,0.54000000000000004
45.800000000000381,0.54000000000000004
45.900000000000382,0.56000000000000005
46.000000000000384,0.56999999999999995
46.100000000000385,0.57999999999999996
46.200000000000387,0.58999999999999997
46.300000000000388,0.58999999999999997
46.400000000000389,0.58999999999999997
46.500000000000391,0.58999999999999997
46.600000000000392,0.58999999999999997
46.700000000000394,0.58999999999999997
46.800000000000395,0.58999999999999997
46.900000000000396,0.58999999999999997
47.000000000000398,0.58999999999999997
47.100000000000399,0.58999999999999997
47.200000000000401,0.58999999999999997
47.300000000000402,0.58999999999999997
47.400000000000404,0.58999999999999997
47.500000000000405,0.58999999999999997
47.600000000000406,0.58999999999999997
47.700000000000408,0.58999999999999997
47.800000000000409,0.58999999999999997
47.900000000000411,0.60999999999999999
48.000000000000412,0.62
48.100000000000414,0.65000000000000002
48.200000000000415,0.66000000000000003
48.300000000000416,0.68000000000000005
48.400000000000418,0.69999999999999996
48.500000000000419,0.71999999999999997
48.600000000000421,0.72999999999999998
48.700000000000422,0.75
48.800000000000423,0.76000000000000001
48.900000000000425,0.76000000000000001
49.000000000000426,0.77000000000000002
49.100000000000428,0.77000000000000002
49.200000000000429,0.77000000000000002
49.300000000000431,0.77000000000000002
49.400000000000432,0.77000000000000002
49.500000000000433,0.78000000000000003
49.600000000000435,0.78000000000000003
49.700000000000436,0.78000000000000003
49.800000000000438,0.78000000000000003
49.900000000000439,0.78000000000000003
50.000000000000441,0.78000000000000003
50.100000000000442,0.78000000000000003
50.200000000000443,0.78000000000000003
50.300000000000445,0.78000000000000003
50.400000000000446,0.78000000000000003
50.500000000000448,0.78000000000000003
50.600000000000449,0.78000000000000003
50.70000000000045,0.78000000000000003
50.800000000000452,0.78000000000000003
50.900000000000453,0.78000000000000003
51.000000000000455,0.78000000000000003
51.100000000000456,0.78000000000000003
51.200000000000458,0.78000000000000003
51.300000000000459,0.78000000000000003
51.40000000000046,0.78000000000000003
51.500000000000462,0.78000000000000003
51.600000000000463,0.78000000000000003
51.700000000000465,0.78000000000000003
51.800000000000466,0.78000000000000003
51.900000000000468,0.78000000000000003
52.000000000000469,0.78000000000000003
52.10000000000047,0.78000000000000003
52.200000000000472,0.78000000000000003
52.300000000000473,0.78000000000000003
52.400000000000475,0.78000000000000003
52.500000000000476,0.78000000000000003
52.600000000000477,0.78000000000000003
52.700000000000479,0.78000000000000003
52.80000000000048,0.78000000000000003
52.900000000000482,0.78000000000000003
53.000000000000483,0.78000000000000003
53.100000000000485,0.78000000000000003
53.200000000000486,0.77000000000000002
53.300000000000487,0.75
53.400000000000489,0.75
53.50000000000049,0.73999999999999999
53.600000000000492,0.73999999999999999
53.700000000000493,0.73999999999999999
53.800000000000495,0.73999999999999999
53.900000000000496,0.73999999999999999
54.000000000000497,0.72999999999999998
54.100000000000499,0.70999999999999996
54.2000000000005,0.69999999999999996
54.300000000000502,0.67000000000000004
54.400000000000503,0.62
54.500000000000504,0.58999999999999997
54.600000000000506,0.56999999999999995
54.700000000000507,0.56000000000000005
54.800000000000509,0.55000000000000004
54.90000000000051,0.55000000000000004
55.000000000000512,0.53000000000000003
55.100000000000513,0.52000000000000002
55.200000000000514,0.505
55.300000000000516,0.46999999999999997
55.400000000000517,0.45000000000000001
55.500000000000519,0.41999999999999998
55.60000000000052,0.40000000000000002
55.700000000000522,0.39000000000000001
55.800000000000523,0.375
55.900000000000524,0.34999999999999998
56.000000000000526,0.34999999999999998
56.100000000000527,0.34000000000000002
56.200000000000529,0.33000000000000002
56.30000000000053,0.33000000000000002
56.400000000000531,0.32000000000000001
56.500000000000533,0.32000000000000001
56.600000000000534,0.32000000000000001
56.700000000000536,0.32000000000000001
56.800000000000537,0.32000000000000001
56.900000000000539,0.32000000000000001
57.00000000000054,0.32000000000000001
57.100000000000541,0.31
57.200000000000543,0.31
57.300000000000544,0.29999999999999999
57.400000000000546,0.29999999999999999
